||CHANNELNAMES||	"PL-RB"
380 -0.0100513320435801
382.008032128514 -0.000657738687783543
384.016064257028 -0.0017189913606823
386.024096385542 0.00416276927818378
388.032128514056 0.00420464217377503
390.04016064257 -0.00779240670588632
392.048192771084 0.00674984790383627
394.056224899598 -0.000720639117098269
396.064257028112 -0.000334118057669622
398.072289156626 0.00718071223768895
400.080321285141 -0.00381209450139541
402.088353413655 0.00706282753908774
404.096385542169 -0.00924448851603833
406.104417670683 7.156727854916E-05
408.112449799197 0.00345210621854768
410.120481927711 0.00310070872539379
412.128514056225 -0.00906073243776532
414.136546184739 0.00610058947524411
416.144578313253 0.00161168528534838
418.152610441767 -0.00806426803949351
420.160642570281 0.0140295617619602
422.168674698795 -0.00217472458302842
424.176706827309 -0.000804275174991822
426.184738955823 -0.00800720166471294
428.192771084337 0.00560909935664936
430.200803212851 -8.03404446490366E-05
432.208835341365 -0.000387533280240573
434.21686746988 -0.0016066591073128
436.224899598394 -0.00223688271226097
438.232931726908 0.00117568026532966
440.240963855422 -0.00805421786512829
442.248995983936 -0.00786093425029067
444.25702811245 0.00770213741025055
446.265060240964 0.00384557054944324
448.273092369478 -0.00501462769342062
450.281124497992 -0.00366098591279092
452.289156626506 0.00133777973944429
454.29718875502 -0.0101745699487291
456.305220883534 0.00431176232698651
458.313253012048 0.00333827741593332
460.321285140562 0.00922695280566434
462.329317269076 -0.00169378327514632
464.33734939759 0.00579374253992708
466.345381526104 0.00557482095835795
468.353413654619 0.00379230834529183
470.361445783133 0.00298583540526393
472.369477911647 -0.00512484964330881
474.377510040161 0.00500781447221616
476.385542168675 -0.0010376680591068
478.393574297189 0.0131484345487412
480.401606425703 0.00633062378225443
482.409638554217 -0.00586812484056414
484.417670682731 -0.00971435016098897
486.425702811245 0.00242502749434443
488.433734939759 0.00712620055929106
490.441767068273 0.00532837232668505
492.449799196787 -0.0024561186363056
494.457831325301 -0.0032998177457161
496.465863453815 -0.00577796352902426
498.473895582329 0.00960039878900687
500.481927710843 0.00909666491363153
502.489959839357 0.00350397901674259
504.497991967871 0.00650030689092628
506.506024096386 0.0010207187064559
508.5140562249 0.00689510783891583
510.522088353414 0.00186438663110026
512.530120481928 -0.00616422604238585
514.538152610442 0.0078701129991254
516.546184738956 0.0135235005626724
518.55421686747 0.00342775394600388
520.562248995984 0.0134113392972607
522.570281124498 0.0175161882096562
524.578313253012 0.0140531791030738
526.586345381526 0.0119683933420742
528.59437751004 0.0155522275176763
530.602409638554 0.0170623879017283
532.610441767068 0.0364808305055547
534.618473895582 0.0325521557523784
536.626506024096 0.0413705142849243
538.634538152611 0.0411392214482689
540.642570281125 0.042703174965443
542.650602409639 0.0520020862129278
544.658634538153 0.0632180736629175
546.666666666667 0.0670016108607365
548.674698795181 0.0776178830846817
550.682730923695 0.093579633510486
552.690763052209 0.102943126348597
554.698795180723 0.116018342242133
556.706827309237 0.134285789821467
558.714859437751 0.144795940073208
560.722891566265 0.165160155948552
562.730923694779 0.18355158478094
564.738955823293 0.206461006751222
566.746987951807 0.224627258118133
568.755020080321 0.246543971101865
570.763052208835 0.265021308738823
572.771084337349 0.278710326862553
574.779116465863 0.323189697867091
576.787148594378 0.333747596519658
578.795180722892 0.376671764027392
580.803212851406 0.404499964497897
582.81124497992 0.431238207096123
584.819277108434 0.441956187682548
586.827309236948 0.480624971090374
588.835341365462 0.507483362159463
590.843373493976 0.518236368181631
592.85140562249 0.531407799739062
594.859437751004 0.546804715873563
596.867469879518 0.561647714556879
598.875502008032 0.571173295179958
600.883534136546 0.577248458792417
602.89156626506 0.565384705309941
604.899598393574 0.576810617252296
606.907630522088 0.559252651662288
608.915662650602 0.540456286080421
610.923694779116 0.525120825688601
612.93172690763 0.506519963234825
614.939759036145 0.474566078560813
616.947791164659 0.448997670184901
618.955823293173 0.426425064792407
620.963855421687 0.397847849029572
622.971887550201 0.366528880889303
624.979919678715 0.343983352266773
626.987951807229 0.320085860212487
628.995983935743 0.294328338321159
631.004016064257 0.293072614538957
633.012048192771 0.276577061827768
635.020080321285 0.266248885053806
637.028112449799 0.277017947767389
639.036144578313 0.267553368206162
641.044176706827 0.30267880984528
643.052208835341 0.315003524271404
645.060240963855 0.313016597734214
647.06827309237 0.345494222798799
649.076305220884 0.357594643697471
651.084337349398 0.367497503319558
653.092369477912 0.380406390823704
655.100401606426 0.405405768292333
657.10843373494 0.40695558674594
659.116465863454 0.40863968836041
661.124497991968 0.421390185980899
663.132530120482 0.407895821228168
665.140562248996 0.407075929485901
667.14859437751 0.417163807875822
669.156626506024 0.406412499100558
671.164658634538 0.392781202510572
673.172690763052 0.386691114444456
675.180722891566 0.376324009206396
677.18875502008 0.368455619440243
679.196787148594 0.365775930963993
681.204819277109 0.349513853896993
683.212851405623 0.329910536727921
685.220883534137 0.319174964718178
687.228915662651 0.313568464426069
689.236947791165 0.315223455351779
691.244979919679 0.299586211716862
693.253012048193 0.284537157999765
695.261044176707 0.286265890262748
697.269076305221 0.278247091764755
699.277108433735 0.263344241339363
701.285140562249 0.261429492646523
703.293172690763 0.250477234149737
705.301204819277 0.256643352087156
707.309236947791 0.242571809853255
709.317269076305 0.229224672694996
711.325301204819 0.230583805070883
713.333333333333 0.224816512144908
715.341365461847 0.213898061730294
717.349397590361 0.21324369745617
719.357429718875 0.214758085403606
721.36546184739 0.214196639932053
723.373493975904 0.179143847683929
725.381526104418 0.19475591193093
727.389558232932 0.187272006652598
729.397590361446 0.184711070712347
731.40562248996 0.180691811313425
733.413654618474 0.18307473623947
735.421686746988 0.170086694898388
737.429718875502 0.158712234405831
739.437751004016 0.167615338497332
741.44578313253 0.162161960120575
743.453815261044 0.142025572014864
745.461847389558 0.145516428407529
747.469879518072 0.152291537751102
749.477911646586 0.143087303825586
751.4859437751 0.133185152399654
753.493975903614 0.129122973866342
755.502008032129 0.130883143690711
757.510040160643 0.120424799869159
759.518072289157 0.110965646599396
761.526104417671 0.106489808895844
763.534136546185 0.109402785251531
765.542168674699 0.101591274473275
767.550200803213 0.0891551927764309
769.558232931727 0.0839722666887357
771.566265060241 0.0956173192896221
773.574297188755 0.0780629166165758
775.582329317269 0.083314822119282
777.590361445783 0.0663062141285267
779.598393574297 0.0681987589445679
781.606425702811 0.0666139609739054
783.614457831325 0.0564923939384867
785.622489959839 0.0473059182201483
787.630522088353 0.0568268445226855
789.638554216868 0.0461105470505598
791.646586345382 0.0455078416856271
793.654618473896 0.0423727354572312
795.66265060241 0.040873094814364
797.670682730924 0.0268380966821762
799.678714859438 0.0298044166311255
801.686746987952 0.0325610775964944
803.694779116466 0.0332948651697289
805.70281124498 0.0250981788729325
807.710843373494 0.0275430839431747
809.718875502008 0.0229913255143767
811.726907630522 0.00837114904744647
813.734939759036 0.00271186010414841
815.74297188755 -0.000694627776940739
817.751004016064 0.0125681936431549
819.759036144578 0.00843807600980512
821.767068273092 0.00541238359089032
823.775100401606 0.00728970428422389
825.783132530121 0.00673775466068379
827.791164658635 0.00474046055763338
829.799196787149 0.00668724542755568
831.807228915663 -0.0109496101828718
833.815261044177 -0.00700959360738754
835.823293172691 0.000987660181411912
837.831325301205 0.011538528308407
839.839357429719 0.00195238439457462
841.847389558233 -0.00424824195463738
843.855421686747 0.00199997770558702
845.863453815261 -0.0058737582791644
847.871485943775 -0.00415038310189158
849.879518072289 -0.00240817737372428
851.887550200803 -0.00220142132470731
853.895582329317 0.00351633810782262
855.903614457831 -0.000365562588577634
857.911646586345 -0.00110814009195901
859.919678714859 0.00144973038494438
861.927710843373 -0.00252071201822405
863.935742971888 0.00795436120155546
865.943775100402 -0.00563338628025725
867.951807228916 0.00232106612302087
869.95983935743 -0.00284505974784929
871.967871485944 -0.00137729137756713
873.975903614458 0.000852841319322201
875.983935742972 0.000358313822221999
877.991967871486 0.00692934390519818
880 -0.00256622448255797
